# AM 1.5 direct solar spectrum according ASTM 891/87
# intensity = 1000 W/m2
# integration has to be performed according to Sum(y_i)
# 1. column x_i: wavelength in um
# 2. column y_i: intensity in W/m2
+0.28 4.721438e-22
+0.2805 1.228239e-20
+0.281 5.678121e-20
+0.2815 1.563068e-18
+0.282 1.192211e-17
+0.2825 4.534513e-17
+0.283 1.841510e-16
+0.2835 3.528928e-16
+0.284 7.252466e-15
+0.2845 2.480629e-14
+0.285 7.998172e-14
+0.2855 4.252777e-13
+0.286 1.365663e-12
+0.2865 8.365535e-12
+0.287 2.731227e-11
+0.2875 1.088119e-10
+0.288 6.221233e-10
+0.2885 1.712768e-09
+0.289 5.615247e-09
+0.2895 2.070750e-08
+0.29 6.004766e-08
+0.2905 1.375543e-07
+0.291 3.498190e-07
+0.2915 1.089117e-06
+0.292 2.677634e-06
+0.2925 4.259963e-06
+0.293 8.629307e-06
+0.2935 2.266159e-05
+0.294 4.166051e-05
+0.2945 6.577918e-05
+0.295 1.226542e-04
+0.2955 2.777035e-04
+0.296 4.780819e-04
+0.2965 7.120231e-04
+0.297 9.660640e-04
+0.2975 1.857078e-03
+0.298 2.893002e-03
+0.2985 3.571742e-03
+0.299 4.911258e-03
+0.2995 8.589586e-03
+0.3 1.018459e-02
+0.3005 1.242510e-02
+0.301 1.926140e-02
+0.3015 2.686017e-02
+0.302 2.915058e-02
+0.3025 4.275432e-02
+0.303 7.080311e-02
+0.3035 8.961541e-02
+0.304 9.451160e-02
+0.3045 1.192909e-01
+0.305 1.643007e-01
+0.3055 1.868156e-01
+0.306 1.853985e-01
+0.3065 2.106578e-01
+0.307 2.779330e-01
+0.3075 3.556373e-01
+0.308 3.776133e-01
+0.3085 4.134714e-01
+0.309 4.045293e-01
+0.3095 4.321939e-01
+0.31 5.083712e-01
+0.3105 6.540892e-01
+0.311 8.275616e-01
+0.3115 8.391184e-01
+0.312 9.318925e-01
+0.3125 9.878603e-01
+0.313 1.071153e+00
+0.3135 1.073549e+00
+0.314 1.194506e+00
+0.3145 1.303388e+00
+0.315 1.359775e+00
+0.3155 1.181432e+00
+0.316 1.232330e+00
+0.3165 1.500593e+00
+0.317 1.712368e+00
+0.3175 1.820851e+00
+0.318 1.755881e+00
+0.3185 1.855382e+00
+0.319 2.042906e+00
+0.3195 1.954982e+00
+0.32 2.048595e+00
+0.3205 2.447595e+00
+0.321 2.497395e+00
+0.3215 2.379531e+00
+0.322 2.215859e+00
+0.3225 2.166558e+00
+0.323 2.118355e+00
+0.3235 2.481128e+00
+0.324 2.748193e+00
+0.3245 2.826436e+00
+0.325 2.783821e+00
+0.3255 3.237113e+00
+0.326 3.804376e+00
+0.3265 4.064056e+00
+0.327 3.972639e+00
+0.3275 3.838807e+00
+0.328 3.504577e+00
+0.3285 3.708967e+00
+0.329 4.215053e+00
+0.3295 4.678424e+00
+0.33 4.704472e+00
+0.3305 4.271440e+00
+0.331 4.018148e+00
+0.3315 4.172239e+00
+0.332 4.353575e+00
+0.3325 4.383116e+00
+0.333 4.285811e+00
+0.3335 4.064255e+00
+0.334 4.141401e+00
+0.3345 4.441998e+00
+0.335 4.629522e+00
+0.3355 4.522237e+00
+0.336 4.143596e+00
+0.3365 3.813757e+00
+0.337 3.730524e+00
+0.3375 3.997090e+00
+0.338 4.332418e+00
+0.3385 4.543595e+00
+0.339 4.626229e+00
+0.3395 4.735111e+00
+0.34 5.007964e+00
+0.3405 4.997086e+00
+0.341 4.704472e+00
+0.3415 4.684113e+00
+0.342 4.883613e+00
+0.3425 5.066547e+00
+0.343 5.138602e+00
+0.3435 4.851178e+00
+0.344 4.175931e+00
+0.3445 4.022639e+00
+0.345 4.580620e+00
+0.3455 4.883414e+00
+0.346 4.768244e+00
+0.3465 4.855969e+00
+0.347 4.930519e+00
+0.3475 4.757865e+00
+0.348 4.741598e+00
+0.3485 4.823933e+00
+0.349 4.647087e+00
+0.3495 4.770939e+00
+0.35 5.269240e+00
+0.3505 5.662752e+00
+0.351 5.506166e+00
+0.3515 5.291596e+00
+0.352 5.168742e+00
+0.3525 4.886408e+00
+0.353 5.193592e+00
+0.3535 5.711354e+00
+0.354 6.037700e+00
+0.3545 6.103369e+00
+0.355 6.101772e+00
+0.3555 5.890994e+00
+0.356 5.527623e+00
+0.3565 5.183812e+00
+0.357 4.558165e+00
+0.3575 4.612257e+00
+0.358 4.291999e+00
+0.3585 3.984615e+00
+0.359 4.685909e+00
+0.3595 5.643590e+00
+0.36 5.969737e+00
+0.3605 5.641794e+00
+0.361 5.191995e+00
+0.3615 5.085409e+00
+0.362 5.331316e+00
+0.3625 5.839298e+00
+0.363 6.007062e+00
+0.3635 5.842392e+00
+0.364 6.050674e+00
+0.3645 5.993788e+00
+0.365 6.223428e+00
+0.3655 6.849074e+00
+0.366 7.338494e+00
+0.3665 7.351068e+00
+0.367 7.214043e+00
+0.3675 7.077217e+00
+0.368 6.662548e+00
+0.3685 6.617738e+00
+0.369 6.917637e+00
+0.3695 7.432006e+00
+0.37 7.535599e+00
+0.3705 6.812448e+00
+0.371 6.919932e+00
+0.3715 7.190690e+00
+0.372 6.730911e+00
+0.3725 6.412449e+00
+0.373 6.176223e+00
+0.3735 5.567443e+00
+0.374 5.552872e+00
+0.3745 5.511655e+00
+0.375 5.881214e+00
+0.3755 6.503168e+00
+0.376 6.734504e+00
+0.3765 6.625722e+00
+0.377 7.108255e+00
+0.3775 7.929609e+00
+0.378 8.542381e+00
+0.3785 8.325116e+00
+0.379 7.424022e+00
+0.3795 6.654963e+00
+0.38 6.993685e+00
+0.3805 7.492485e+00
+0.381 7.623023e+00
+0.3815 6.869933e+00
+0.382 5.856064e+00
+0.3825 5.066048e+00
+0.383 4.540800e+00
+0.3835 4.396090e+00
+0.384 5.086606e+00
+0.3845 6.123628e+00
+0.385 6.722029e+00
+0.3855 6.423427e+00
+0.386 6.197580e+00
+0.3865 6.444086e+00
+0.387 6.501671e+00
+0.3875 6.407559e+00
+0.388 6.345484e+00
+0.3885 6.300973e+00
+0.389 6.840591e+00
+0.3895 7.581806e+00
+0.39 7.953960e+00
+0.3905 8.021026e+00
+0.391 8.496772e+00
+0.3915 8.617131e+00
+0.392 7.933401e+00
+0.3925 6.612449e+00
+0.393 4.787905e+00
+0.3935 3.807570e+00
+0.394 4.946787e+00
+0.3945 6.824823e+00
+0.395 8.061046e+00
+0.3955 8.586592e+00
+0.396 7.550369e+00
+0.3965 5.490697e+00
+0.397 4.253376e+00
+0.3975 6.281911e+00
+0.398 8.507850e+00
+0.3985 1.004886e+01
+0.399 1.067161e+01
+0.3995 1.099896e+01
+0.4 1.111872e+01
+0.401 1.157979e+01
+0.402 1.203688e+01
+0.403 1.158977e+01
+0.404 1.177740e+01
+0.405 1.148798e+01
+0.406 1.120455e+01
+0.407 1.100395e+01
+0.408 1.149097e+01
+0.409 1.227440e+01
+0.41 1.046403e+01
+0.411 1.171452e+01
+0.412 1.245304e+01
+0.413 1.194706e+01
+0.414 1.181832e+01
+0.415 1.223348e+01
+0.416 1.259875e+01
+0.417 1.228738e+01
+0.418 1.175345e+01
+0.419 1.223348e+01
+0.42 1.120954e+01
+0.421 1.273149e+01
+0.422 1.255783e+01
+0.423 1.215963e+01
+0.424 1.209277e+01
+0.425 1.246302e+01
+0.426 1.211073e+01
+0.427 1.170055e+01
+0.428 1.181532e+01
+0.429 1.094107e+01
+0.43 8.728708e+00
+0.431 7.923521e+00
+0.432 1.318059e+01
+0.433 1.226342e+01
+0.434 1.132930e+01
+0.435 1.242710e+01
+0.436 1.363168e+01
+0.437 1.391511e+01
+0.438 1.221352e+01
+0.439 1.175145e+01
+0.44 1.347200e+01
+0.441 1.328637e+01
+0.442 1.422150e+01
+0.443 1.442409e+01
+0.444 1.405583e+01
+0.445 1.458976e+01
+0.446 1.308178e+01
+0.447 1.487319e+01
+0.448 1.505084e+01
+0.449 1.501491e+01
+0.45 1.556381e+01
+0.451 1.614065e+01
+0.452 1.545104e+01
+0.453 1.426841e+01
+0.454 1.530433e+01
+0.455 1.519355e+01
+0.456 1.569255e+01
+0.457 1.582229e+01
+0.458 1.548297e+01
+0.459 1.536022e+01
+0.46 1.526042e+01
+0.461 1.579535e+01
+0.462 1.594305e+01
+0.463 1.599894e+01
+0.464 1.551291e+01
+0.465 1.531930e+01
+0.466 1.564165e+01
+0.467 1.494305e+01
+0.468 1.558776e+01
+0.469 1.565064e+01
+0.47 1.504685e+01
+0.471 1.530034e+01
+0.472 1.609375e+01
+0.473 1.546800e+01
+0.474 1.563966e+01
+0.475 1.615263e+01
+0.476 1.559974e+01
+0.477 1.569255e+01
+0.478 1.619754e+01
+0.479 1.588417e+01
+0.48 1.614864e+01
+0.481 1.614465e+01
+0.482 1.620353e+01
+0.483 1.600592e+01
+0.484 1.570253e+01
+0.485 1.565163e+01
+0.486 1.269057e+01
+0.487 1.421252e+01
+0.488 1.538217e+01
+0.489 1.448996e+01
+0.49 1.619155e+01
+0.491 1.556381e+01
+0.492 1.483926e+01
+0.493 1.587119e+01
+0.494 1.549395e+01
+0.495 1.645203e+01
+0.496 1.564465e+01
+0.497 1.591211e+01
+0.498 1.547798e+01
+0.499 1.547599e+01
+0.5 1.542010e+01
+0.501 1.494804e+01
+0.502 1.493607e+01
+0.503 1.562169e+01
+0.504 1.455783e+01
+0.505 1.560373e+01
+0.506 1.623147e+01
+0.507 1.552888e+01
+0.508 1.513467e+01
+0.509 1.586121e+01
+0.51 1.545004e+01
+0.511 1.573746e+01
+0.512 1.615363e+01
+0.513 1.517559e+01
+0.514 1.485523e+01
+0.515 1.528337e+01
+0.516 1.542409e+01
+0.517 1.256881e+01
+0.518 1.437419e+01
+0.519 1.392909e+01
+0.52 1.520553e+01
+0.521 1.531531e+01
+0.522 1.565862e+01
+0.523 1.475942e+01
+0.524 1.587319e+01
+0.525 1.574944e+01
+0.526 1.531032e+01
+0.527 1.339017e+01
+0.528 1.532629e+01
+0.529 1.603886e+01
+0.53 1.541511e+01
+0.531 1.625942e+01
+0.532 1.596600e+01
+0.533 1.425743e+01
+0.534 1.527140e+01
+0.535 1.550393e+01
+0.536 1.616660e+01
+0.537 1.495902e+01
+0.538 1.570652e+01
+0.539 1.532130e+01
+0.54 1.479535e+01
+0.541 1.422250e+01
+0.542 1.547998e+01
+0.543 1.522549e+01
+0.544 1.576042e+01
+0.545 1.540413e+01
+0.546 1.526042e+01
+0.547 1.545902e+01
+0.548 1.501890e+01
+0.549 1.548896e+01
+0.55 1.536820e+01
+0.551 1.535124e+01
+0.552 1.566561e+01
+0.553 1.521950e+01
+0.554 1.551790e+01
+0.555 1.560273e+01
+0.556 1.533527e+01
+0.557 1.495802e+01
+0.558 1.527938e+01
+0.559 1.445403e+01
+0.56 1.471052e+01
+0.561 1.556381e+01
+0.562 1.481731e+01
+0.563 1.537718e+01
+0.564 1.507579e+01
+0.565 1.517060e+01
+0.566 1.434525e+01
+0.567 1.528936e+01
+0.568 1.514964e+01
+0.569 1.477739e+01
+0.57 1.478637e+01
+0.571 1.430234e+01
+0.572 1.510373e+01
+0.573 1.516760e+01
+0.574 1.508876e+01
+0.575 1.474745e+01
+0.576 1.462469e+01
+0.577 1.499295e+01
+0.578 1.453088e+01
+0.579 1.474046e+01
+0.58 1.498996e+01
+0.581 1.505882e+01
+0.582 1.528936e+01
+0.583 1.544804e+01
+0.584 1.541710e+01
+0.585 1.529335e+01
+0.586 1.492309e+01
+0.587 1.525044e+01
+0.588 1.490413e+01
+0.589 1.286821e+01
+0.59 1.368158e+01
+0.591 1.463268e+01
+0.592 1.432529e+01
+0.593 1.453188e+01
+0.594 1.446202e+01
+0.595 1.427938e+01
+0.596 1.471551e+01
+0.597 1.475842e+01
+0.598 1.457779e+01
+0.599 1.457679e+01
+0.6 1.472349e+01
+0.601 1.454984e+01
+0.602 1.433128e+01
+0.603 1.463467e+01
+0.604 1.489116e+01
+0.605 1.486521e+01
+0.606 1.479236e+01
+0.607 1.488118e+01
+0.608 1.483228e+01
+0.609 1.471950e+01
+0.61 1.465663e+01
+0.611 1.458178e+01
+0.612 1.480134e+01
+0.613 1.459176e+01
+0.614 1.414765e+01
+0.615 1.466761e+01
+0.616 1.428138e+01
+0.617 1.409974e+01
+0.618 1.463467e+01
+0.619 1.470353e+01
+0.62 1.470952e+01
+0.621 1.477240e+01
+0.622 1.424046e+01
+0.623 1.413667e+01
+0.624 1.408976e+01
+0.625 1.399795e+01
+0.626 1.398398e+01
+0.627 1.438817e+01
+0.628 1.360374e+01
+0.629 1.408577e+01
+0.63 1.389615e+01
+0.631 1.413268e+01
+0.632 1.361072e+01
+0.633 1.447898e+01
+0.634 1.425543e+01
+0.635 1.442908e+01
+0.636 1.409974e+01
+0.637 1.458078e+01
+0.638 1.467759e+01
+0.639 1.461671e+01
+0.64 1.431132e+01
+0.641 1.431930e+01
+0.642 1.434725e+01
+0.643 1.449595e+01
+0.644 1.443308e+01
+0.645 1.453787e+01
+0.646 1.412170e+01
+0.647 1.405783e+01
+0.648 1.392410e+01
+0.649 1.349196e+01
+0.65 1.356681e+01
+0.651 1.441811e+01
+0.652 1.384326e+01
+0.653 1.428238e+01
+0.654 1.412469e+01
+0.655 1.347200e+01
+0.656 1.182730e+01
+0.657 1.236821e+01
+0.658 1.382729e+01
+0.659 1.387719e+01
+0.66 1.396402e+01
+0.661 1.390513e+01
+0.662 1.379136e+01
+0.663 1.381631e+01
+0.664 1.393907e+01
+0.665 1.418557e+01
+0.666 1.417459e+01
+0.667 1.407380e+01
+0.668 1.412170e+01
+0.669 1.436521e+01
+0.67 1.416761e+01
+0.671 1.414066e+01
+0.672 1.394406e+01
+0.673 1.406581e+01
+0.674 1.404585e+01
+0.675 1.393008e+01
+0.676 1.409176e+01
+0.677 1.396302e+01
+0.678 1.403787e+01
+0.679 1.391911e+01
+0.68 1.394106e+01
+0.681 1.388717e+01
+0.682 1.395304e+01
+0.683 1.380234e+01
+0.684 1.371152e+01
+0.685 1.372050e+01
+0.686 1.341112e+01
+0.687 9.663035e+00
+0.688 1.118359e+01
+0.689 1.125544e+01
+0.69 1.179736e+01
+0.691 1.230833e+01
+0.692 1.266362e+01
+0.693 1.258378e+01
+0.694 1.243907e+01
+0.695 1.268857e+01
+0.696 1.265863e+01
+0.697 1.337619e+01
+0.698 1.316562e+01
+0.699 1.289216e+01
+0.7 1.279735e+01
+0.701 1.263368e+01
+0.702 1.264865e+01
+0.703 1.272151e+01
+0.704 1.305184e+01
+0.705 1.318757e+01
+0.706 1.311771e+01
+0.707 1.306382e+01
+0.708 1.302190e+01
+0.709 1.306881e+01
+0.71 1.314865e+01
+0.711 1.312869e+01
+0.712 1.304486e+01
+0.713 1.289216e+01
+0.714 1.300294e+01
+0.715 1.256183e+01
+0.716 1.269057e+01
+0.717 1.104886e+01
+0.718 1.027541e+01
+0.719 9.213336e+00
+0.72 9.835290e+00
+0.721 1.083928e+01
+0.722 1.238219e+01
+0.723 1.142111e+01
+0.724 1.053389e+01
+0.725 1.035924e+01
+0.726 1.079137e+01
+0.727 1.082830e+01
+0.728 1.037920e+01
+0.729 1.044507e+01
+0.73 1.126243e+01
+0.731 1.068159e+01
+0.732 1.151093e+01
+0.733 1.193808e+01
+0.734 1.233229e+01
+0.735 1.215364e+01
+0.736 1.203488e+01
+0.737 1.201492e+01
+0.738 1.224446e+01
+0.739 1.188119e+01
+0.74 1.217061e+01
+0.741 1.212370e+01
+0.742 1.212869e+01
+0.743 1.238019e+01
+0.744 1.247799e+01
+0.745 1.247201e+01
+0.746 1.244506e+01
+0.747 1.245205e+01
+0.748 1.237620e+01
+0.749 1.233229e+01
+0.75 1.231632e+01
+0.751 1.226143e+01
+0.752 1.230534e+01
+0.753 1.224147e+01
+0.754 1.239516e+01
+0.755 1.235823e+01
+0.756 1.220754e+01
+0.757 1.219656e+01
+0.758 1.227041e+01
+0.759 1.192111e+01
+0.76 2.655079e+00
+0.761 1.536521e+00
+0.762 6.862847e+00
+0.763 3.787610e+00
+0.764 5.377024e+00
+0.765 6.846380e+00
+0.766 8.129808e+00
+0.767 9.722217e+00
+0.768 1.111572e+01
+0.769 1.125544e+01
+0.77 1.158478e+01
+0.771 1.166263e+01
+0.772 1.175444e+01
+0.773 1.174746e+01
+0.774 1.174746e+01
+0.775 1.174746e+01
+0.776 1.177440e+01
+0.777 1.170355e+01
+0.778 1.168957e+01
+0.779 1.174147e+01
+0.78 1.161273e+01
+0.781 1.158379e+01
+0.782 1.163868e+01
+0.783 1.159077e+01
+0.784 1.151293e+01
+0.785 1.156283e+01
+0.786 1.156882e+01
+0.787 1.142710e+01
+0.788 1.128239e+01
+0.789 1.123449e+01
+0.79 1.088818e+01
+0.791 1.103588e+01
+0.792 1.093109e+01
+0.793 1.085325e+01
+0.794 1.095006e+01
+0.795 1.091014e+01
+0.796 1.072052e+01
+0.797 1.089117e+01
+0.798 1.109876e+01
+0.799 1.088319e+01
+0.8 1.070355e+01
+0.801 1.082131e+01
+0.802 1.083429e+01
+0.803 1.063569e+01
+0.804 1.076044e+01
+0.805 1.052391e+01
+0.806 1.095205e+01
+0.807 1.083728e+01
+0.808 1.079936e+01
+0.809 1.052690e+01
+0.81 1.053788e+01
+0.811 1.051193e+01
+0.812 1.024746e+01
+0.813 1.006583e+01
+0.814 9.017529e+00
+0.815 8.934395e+00
+0.816 8.304957e+00
+0.817 8.501263e+00
+0.818 8.209448e+00
+0.819 9.033796e+00
+0.82 8.601562e+00
+0.821 9.956447e+00
+0.822 9.496669e+00
+0.823 6.713646e+00
+0.824 9.331899e+00
+0.825 9.674113e+00
+0.826 9.319424e+00
+0.827 9.826807e+00
+0.828 8.480904e+00
+0.829 9.274414e+00
+0.83 9.141780e+00
+0.831 9.220722e+00
+0.832 8.924715e+00
+0.833 9.545870e+00
+0.834 9.322518e+00
+0.835 1.001194e+01
+0.836 9.703953e+00
+0.837 1.007182e+01
+0.838 9.970120e+00
+0.839 9.992974e+00
+0.84 1.013669e+01
+0.841 1.008080e+01
+0.842 9.950359e+00
+0.843 1.003289e+01
+0.844 9.843374e+00
+0.845 1.014467e+01
+0.846 1.016663e+01
+0.847 9.897166e+00
+0.848 9.901857e+00
+0.849 9.839881e+00
+0.85 8.919326e+00
+0.851 9.729801e+00
+0.852 9.673315e+00
+0.853 9.629303e+00
+0.854 8.494178e+00
+0.855 9.111740e+00
+0.856 9.712237e+00
+0.857 9.896767e+00
+0.858 9.899761e+00
+0.859 9.897266e+00
+0.86 9.861837e+00
+0.861 9.848164e+00
+0.862 9.925010e+00
+0.863 9.984990e+00
+0.864 9.772017e+00
+0.865 9.613135e+00
+0.866 8.473020e+00
+0.867 9.136291e+00
+0.868 9.572816e+00
+0.869 9.476609e+00
+0.87 9.656149e+00
+0.871 9.519623e+00
+0.872 9.649263e+00
+0.873 9.552956e+00
+0.874 9.385392e+00
+0.875 9.250163e+00
+0.876 9.508645e+00
+0.877 9.542377e+00
+0.878 9.504653e+00
+0.879 9.346869e+00
+0.88 9.376909e+00
+0.881 9.067928e+00
+0.882 9.305851e+00
+0.883 9.274115e+00
+0.884 9.311839e+00
+0.885 9.423415e+00
+0.886 9.057050e+00
+0.887 9.087988e+00
+0.888 9.204354e+00
+0.889 9.326809e+00
+0.89 9.220821e+00
+0.891 9.239883e+00
+0.892 9.069924e+00
+0.893 8.715235e+00
+0.894 8.495974e+00
+0.895 8.119429e+00
+0.896 7.610049e+00
+0.897 6.643287e+00
+0.898 7.163644e+00
+0.899 5.476126e+00
+0.9 7.411148e+00
+0.901 5.981313e+00
+0.902 6.665742e+00
+0.903 6.875122e+00
+0.904 8.428809e+00
+0.905 8.154558e+00
+0.906 7.740288e+00
+0.907 6.372629e+00
+0.908 6.508657e+00
+0.909 7.029014e+00
+0.91 6.234207e+00
+0.911 6.667438e+00
+0.912 6.875521e+00
+0.913 6.270833e+00
+0.914 6.252370e+00
+0.915 6.770033e+00
+0.916 5.753071e+00
+0.917 7.287097e+00
+0.918 5.915246e+00
+0.919 7.372925e+00
+0.92 7.426517e+00
+0.921 7.789290e+00
+0.922 6.988595e+00
+0.923 7.435499e+00
+0.924 7.200570e+00
+0.925 7.096778e+00
+0.926 7.019034e+00
+0.927 7.858452e+00
+0.928 5.885006e+00
+0.929 5.501675e+00
+0.93 4.312358e+00
+0.931 4.083916e+00
+0.932 3.002583e+00
+0.933 2.479132e+00
+0.934 1.435124e+00
+0.935 2.503383e+00
+0.936 1.610972e+00
+0.937 1.630532e+00
+0.938 2.001788e+00
+0.939 3.980723e+00
+0.94 4.708664e+00
+0.941 3.712061e+00
+0.942 4.045094e+00
+0.943 2.777833e+00
+0.944 2.852184e+00
+0.945 3.674736e+00
+0.946 1.942208e+00
+0.947 3.703778e+00
+0.948 2.736815e+00
+0.949 4.929721e+00
+0.95 1.469655e+00
+0.951 4.828124e+00
+0.952 2.683722e+00
+0.953 3.429328e+00
+0.954 4.232618e+00
+0.955 3.404877e+00
+0.956 3.275536e+00
+0.957 2.701287e+00
+0.958 4.600880e+00
+0.959 3.731023e+00
+0.96 4.198187e+00
+0.961 4.602776e+00
+0.962 4.408565e+00
+0.963 5.040199e+00
+0.964 4.576828e+00
+0.965 5.027325e+00
+0.966 5.017445e+00
+0.967 5.013952e+00
+0.968 6.507958e+00
+0.969 6.848476e+00
+0.97 6.333408e+00
+0.971 7.125421e+00
+0.972 6.862747e+00
+0.973 6.052670e+00
+0.974 5.741394e+00
+0.975 5.886903e+00
+0.976 5.707662e+00
+0.977 6.373627e+00
+0.978 6.138598e+00
+0.979 6.368737e+00
+0.98 6.034706e+00
+0.981 7.119532e+00
+0.982 6.907956e+00
+0.983 6.673127e+00
+0.984 7.358454e+00
+0.985 6.867937e+00
+0.986 7.493283e+00
+0.987 7.378014e+00
+0.988 7.331508e+00
+0.989 7.475619e+00
+0.99 7.308055e+00
+0.991 7.520728e+00
+0.992 7.495180e+00
+0.993 7.358054e+00
+0.994 7.525918e+00
+0.995 7.502565e+00
+0.996 7.473423e+00
+0.997 7.382306e+00
+0.998 7.373923e+00
+0.999 7.370929e+00
+1 7.338494e+00
+1.001 7.429312e+00
+1.002 7.265939e+00
+1.003 7.329512e+00
+1.004 7.219133e+00
+1.005 6.803765e+00
+1.006 7.110950e+00
+1.007 7.260749e+00
+1.008 7.253963e+00
+1.009 7.182806e+00
+1.01 7.177017e+00
+1.011 7.213344e+00
+1.012 7.173325e+00
+1.013 7.161748e+00
+1.014 7.192386e+00
+1.015 7.067537e+00
+1.016 7.098674e+00
+1.017 7.019633e+00
+1.018 7.127916e+00
+1.019 6.874024e+00
+1.02 6.975621e+00
+1.021 7.003465e+00
+1.022 6.883206e+00
+1.023 6.936898e+00
+1.024 6.891988e+00
+1.025 6.961349e+00
+1.026 6.949673e+00
+1.027 6.916639e+00
+1.028 6.924623e+00
+1.029 6.849074e+00
+1.03 6.891689e+00
+1.031 6.859853e+00
+1.032 6.864943e+00
+1.033 6.747777e+00
+1.034 6.787897e+00
+1.035 6.809753e+00
+1.036 6.806560e+00
+1.037 6.736201e+00
+1.038 6.703766e+00
+1.039 6.750073e+00
+1.04 6.703566e+00
+1.041 6.704165e+00
+1.042 6.706560e+00
+1.043 6.639195e+00
+1.044 6.669933e+00
+1.045 6.631910e+00
+1.046 6.458457e+00
+1.047 6.556261e+00
+1.048 6.614145e+00
+1.049 6.576421e+00
+1.05 6.533207e+00
+1.051 6.538996e+00
+1.052 6.498776e+00
+1.053 6.478916e+00
+1.054 6.451671e+00
+1.055 6.471731e+00
+1.056 6.451172e+00
+1.057 6.435304e+00
+1.058 6.369036e+00
+1.059 6.175125e+00
+1.06 6.345783e+00
+1.061 6.199676e+00
+1.062 6.313947e+00
+1.063 6.211452e+00
+1.064 6.306961e+00
+1.065 6.278717e+00
+1.066 6.158957e+00
+1.067 6.190794e+00
+1.068 6.182011e+00
+1.069 5.850875e+00
+1.07 6.034806e+00
+1.071 6.153768e+00
+1.072 6.141293e+00
+1.073 6.024227e+00
+1.074 6.203368e+00
+1.075 5.913350e+00
+1.076 6.134806e+00
+1.077 6.031313e+00
+1.078 6.020036e+00
+1.079 6.035305e+00
+1.08 5.960256e+00
+1.081 5.796683e+00
+1.082 5.882212e+00
+1.083 5.969437e+00
+1.084 5.773630e+00
+1.085 5.921134e+00
+1.086 5.529918e+00
+1.087 5.658361e+00
+1.088 5.919837e+00
+1.089 5.780316e+00
+1.09 5.546185e+00
+1.091 5.871733e+00
+1.092 5.800775e+00
+1.093 5.095588e+00
+1.094 5.385707e+00
+1.095 5.196287e+00
+1.096 5.022235e+00
+1.097 5.773630e+00
+1.098 5.019042e+00
+1.099 5.067046e+00
+1.1 4.847985e+00
+1.101 4.959661e+00
+1.102 4.678923e+00
+1.103 4.654373e+00
+1.104 4.667147e+00
+1.105 5.054271e+00
+1.106 3.971242e+00
+1.107 4.820739e+00
+1.108 4.148187e+00
+1.109 4.119544e+00
+1.11 4.780320e+00
+1.111 3.308769e+00
+1.112 4.127429e+00
+1.113 2.679630e+00
+1.114 2.992503e+00
+1.115 2.493703e+00
+1.116 2.009573e+00
+1.117 7.945876e-01
+1.118 2.170949e+00
+1.119 1.129437e+00
+1.12 1.416062e+00
+1.121 1.854883e+00
+1.122 8.152263e-01
+1.123 1.279137e+00
+1.124 1.084826e+00
+1.125 1.439914e+00
+1.126 5.148582e-01
+1.127 1.569355e+00
+1.128 9.902555e-01
+1.129 1.056982e+00
+1.13 7.043285e-01
+1.131 2.950088e+00
+1.132 2.336418e+00
+1.133 1.530034e+00
+1.134 4.165652e-01
+1.135 1.543108e-01
+1.136 1.285025e+00
+1.137 2.872743e+00
+1.138 2.028834e+00
+1.139 2.979030e+00
+1.14 2.554780e+00
+1.141 1.929833e+00
+1.142 2.243404e+00
+1.143 3.112063e+00
+1.144 1.130335e+00
+1.145 1.457479e+00
+1.146 1.573247e+00
+1.147 5.905765e-01
