# AM 1.5 direct solar spectrum according ASTM 891/87
# intensity = 1000 W/m2
# integration has to be performed according to Sum(y_i)
# 1. column x_i: wavelength in um
# 2. column y_i: intensity in W/m2
+0.28 4.730900e-22
+0.2805 1.230700e-20
+0.281 5.689500e-20
+0.2815 1.566200e-18
+0.282 1.194600e-17
+0.2825 4.543600e-17
+0.283 1.845200e-16
+0.2835 3.536000e-16
+0.284 7.267000e-15
+0.2845 2.485600e-14
+0.285 8.014200e-14
+0.2855 4.261300e-13
+0.286 1.368400e-12
+0.2865 8.382300e-12
+0.287 2.736700e-11
+0.2875 1.090300e-10
+0.288 6.233700e-10
+0.2885 1.716200e-09
+0.289 5.626500e-09
+0.2895 2.074900e-08
+0.29 6.016800e-08
+0.2905 1.378300e-07
+0.291 3.505200e-07
+0.2915 1.091300e-06
+0.292 2.683000e-06
+0.2925 4.268500e-06
+0.293 8.646600e-06
+0.2935 2.270700e-05
+0.294 4.174400e-05
+0.2945 6.591100e-05
+0.295 1.229000e-04
+0.2955 2.782600e-04
+0.296 4.790400e-04
+0.2965 7.134500e-04
+0.297 9.680000e-04
+0.2975 1.860800e-03
+0.298 2.898800e-03
+0.2985 3.578900e-03
+0.299 4.921100e-03
+0.2995 8.606800e-03
+0.3 1.020500e-02
+0.3005 1.245000e-02
+0.301 1.930000e-02
+0.3015 2.691400e-02
+0.302 2.920900e-02
+0.3025 4.284000e-02
+0.303 7.094500e-02
+0.3035 8.979500e-02
+0.304 9.470100e-02
+0.3045 1.195300e-01
+0.305 1.646300e-01
+0.3055 1.871900e-01
+0.306 1.857700e-01
+0.3065 2.110800e-01
+0.307 2.784900e-01
+0.3075 3.563500e-01
+0.308 3.783700e-01
+0.3085 4.143000e-01
+0.309 4.053400e-01
+0.3095 4.330600e-01
+0.31 5.093900e-01
+0.3105 6.554000e-01
+0.311 8.292200e-01
+0.3115 8.408000e-01
+0.312 9.337600e-01
+0.3125 9.898400e-01
+0.313 1.073300e+00
+0.3135 1.075700e+00
+0.314 1.196900e+00
+0.3145 1.306000e+00
+0.315 1.362500e+00
+0.3155 1.183800e+00
+0.316 1.234800e+00
+0.3165 1.503600e+00
+0.317 1.715800e+00
+0.3175 1.824500e+00
+0.318 1.759400e+00
+0.3185 1.859100e+00
+0.319 2.047000e+00
+0.3195 1.958900e+00
+0.32 2.052700e+00
+0.3205 2.452500e+00
+0.321 2.502400e+00
+0.3215 2.384300e+00
+0.322 2.220300e+00
+0.3225 2.170900e+00
+0.323 2.122600e+00
+0.3235 2.486100e+00
+0.324 2.753700e+00
+0.3245 2.832100e+00
+0.325 2.789400e+00
+0.3255 3.243600e+00
+0.326 3.812000e+00
+0.3265 4.072200e+00
+0.327 3.980600e+00
+0.3275 3.846500e+00
+0.328 3.511600e+00
+0.3285 3.716400e+00
+0.329 4.223500e+00
+0.3295 4.687800e+00
+0.33 4.713900e+00
+0.3305 4.280000e+00
+0.331 4.026200e+00
+0.3315 4.180600e+00
+0.332 4.362300e+00
+0.3325 4.391900e+00
+0.333 4.294400e+00
+0.3335 4.072400e+00
+0.334 4.149700e+00
+0.3345 4.450900e+00
+0.335 4.638800e+00
+0.3355 4.531300e+00
+0.336 4.151900e+00
+0.3365 3.821400e+00
+0.337 3.738000e+00
+0.3375 4.005100e+00
+0.338 4.341100e+00
+0.3385 4.552700e+00
+0.339 4.635500e+00
+0.3395 4.744600e+00
+0.34 5.018000e+00
+0.3405 5.007100e+00
+0.341 4.713900e+00
+0.3415 4.693500e+00
+0.342 4.893400e+00
+0.3425 5.076700e+00
+0.343 5.148900e+00
+0.3435 4.860900e+00
+0.344 4.184300e+00
+0.3445 4.030700e+00
+0.345 4.589800e+00
+0.3455 4.893200e+00
+0.346 4.777800e+00
+0.3465 4.865700e+00
+0.347 4.940400e+00
+0.3475 4.767400e+00
+0.348 4.751100e+00
+0.3485 4.833600e+00
+0.349 4.656400e+00
+0.3495 4.780500e+00
+0.35 5.279800e+00
+0.3505 5.674100e+00
+0.351 5.517200e+00
+0.3515 5.302200e+00
+0.352 5.179100e+00
+0.3525 4.896200e+00
+0.353 5.204000e+00
+0.3535 5.722800e+00
+0.354 6.049800e+00
+0.3545 6.115600e+00
+0.355 6.114000e+00
+0.3555 5.902800e+00
+0.356 5.538700e+00
+0.3565 5.194200e+00
+0.357 4.567300e+00
+0.3575 4.621500e+00
+0.358 4.300600e+00
+0.3585 3.992600e+00
+0.359 4.695300e+00
+0.3595 5.654900e+00
+0.36 5.981700e+00
+0.3605 5.653100e+00
+0.361 5.202400e+00
+0.3615 5.095600e+00
+0.362 5.342000e+00
+0.3625 5.851000e+00
+0.363 6.019100e+00
+0.3635 5.854100e+00
+0.364 6.062800e+00
+0.3645 6.005800e+00
+0.365 6.235900e+00
+0.3655 6.862800e+00
+0.366 7.353200e+00
+0.3665 7.365800e+00
+0.367 7.228500e+00
+0.3675 7.091400e+00
+0.368 6.675900e+00
+0.3685 6.631000e+00
+0.369 6.931500e+00
+0.3695 7.446900e+00
+0.37 7.550700e+00
+0.3705 6.826100e+00
+0.371 6.933800e+00
+0.3715 7.205100e+00
+0.372 6.744400e+00
+0.3725 6.425300e+00
+0.373 6.188600e+00
+0.3735 5.578600e+00
+0.374 5.564000e+00
+0.3745 5.522700e+00
+0.375 5.893000e+00
+0.3755 6.516200e+00
+0.376 6.748000e+00
+0.3765 6.639000e+00
+0.377 7.122500e+00
+0.3775 7.945500e+00
+0.378 8.559500e+00
+0.3785 8.341800e+00
+0.379 7.438900e+00
+0.3795 6.668300e+00
+0.38 7.007700e+00
+0.3805 7.507500e+00
+0.381 7.638300e+00
+0.3815 6.883700e+00
+0.382 5.867800e+00
+0.3825 5.076200e+00
+0.383 4.549900e+00
+0.3835 4.404900e+00
+0.384 5.096800e+00
+0.3845 6.135900e+00
+0.385 6.735500e+00
+0.3855 6.436300e+00
+0.386 6.210000e+00
+0.3865 6.457000e+00
+0.387 6.514700e+00
+0.3875 6.420400e+00
+0.388 6.358200e+00
+0.3885 6.313600e+00
+0.389 6.854300e+00
+0.3895 7.597000e+00
+0.39 7.969900e+00
+0.3905 8.037100e+00
+0.391 8.513800e+00
+0.3915 8.634400e+00
+0.392 7.949300e+00
+0.3925 6.625700e+00
+0.393 4.797500e+00
+0.3935 3.815200e+00
+0.394 4.956700e+00
+0.3945 6.838500e+00
+0.395 8.077200e+00
+0.3955 8.603800e+00
+0.396 7.565500e+00
+0.3965 5.501700e+00
+0.397 4.261900e+00
+0.3975 6.294500e+00
+0.398 8.524900e+00
+0.3985 1.006900e+01
+0.399 1.069300e+01
+0.3995 1.102100e+01
+0.4 1.114100e+01
+0.401 1.160300e+01
+0.402 1.206100e+01
+0.403 1.161300e+01
+0.404 1.180100e+01
+0.405 1.151100e+01
+0.406 1.122700e+01
+0.407 1.102600e+01
+0.408 1.151400e+01
+0.409 1.229900e+01
+0.41 1.048500e+01
+0.411 1.173800e+01
+0.412 1.247800e+01
+0.413 1.197100e+01
+0.414 1.184200e+01
+0.415 1.225800e+01
+0.416 1.262400e+01
+0.417 1.231200e+01
+0.418 1.177700e+01
+0.419 1.225800e+01
+0.42 1.123200e+01
+0.421 1.275700e+01
+0.422 1.258300e+01
+0.423 1.218400e+01
+0.424 1.211700e+01
+0.425 1.248800e+01
+0.426 1.213500e+01
+0.427 1.172400e+01
+0.428 1.183900e+01
+0.429 1.096300e+01
+0.43 8.746200e+00
+0.431 7.939400e+00
+0.432 1.320700e+01
+0.433 1.228800e+01
+0.434 1.135200e+01
+0.435 1.245200e+01
+0.436 1.365900e+01
+0.437 1.394300e+01
+0.438 1.223800e+01
+0.439 1.177500e+01
+0.44 1.349900e+01
+0.441 1.331300e+01
+0.442 1.425000e+01
+0.443 1.445300e+01
+0.444 1.408400e+01
+0.445 1.461900e+01
+0.446 1.310800e+01
+0.447 1.490300e+01
+0.448 1.508100e+01
+0.449 1.504500e+01
+0.45 1.559500e+01
+0.451 1.617300e+01
+0.452 1.548200e+01
+0.453 1.429700e+01
+0.454 1.533500e+01
+0.455 1.522400e+01
+0.456 1.572400e+01
+0.457 1.585400e+01
+0.458 1.551400e+01
+0.459 1.539100e+01
+0.46 1.529100e+01
+0.461 1.582700e+01
+0.462 1.597500e+01
+0.463 1.603100e+01
+0.464 1.554400e+01
+0.465 1.535000e+01
+0.466 1.567300e+01
+0.467 1.497300e+01
+0.468 1.561900e+01
+0.469 1.568200e+01
+0.47 1.507700e+01
+0.471 1.533100e+01
+0.472 1.612600e+01
+0.473 1.549900e+01
+0.474 1.567100e+01
+0.475 1.618500e+01
+0.476 1.563100e+01
+0.477 1.572400e+01
+0.478 1.623000e+01
+0.479 1.591600e+01
+0.48 1.618100e+01
+0.481 1.617700e+01
+0.482 1.623600e+01
+0.483 1.603800e+01
+0.484 1.573400e+01
+0.485 1.568300e+01
+0.486 1.271600e+01
+0.487 1.424100e+01
+0.488 1.541300e+01
+0.489 1.451900e+01
+0.49 1.622400e+01
+0.491 1.559500e+01
+0.492 1.486900e+01
+0.493 1.590300e+01
+0.494 1.552500e+01
+0.495 1.648500e+01
+0.496 1.567600e+01
+0.497 1.594400e+01
+0.498 1.550900e+01
+0.499 1.550700e+01
+0.5 1.545100e+01
+0.501 1.497800e+01
+0.502 1.496600e+01
+0.503 1.565300e+01
+0.504 1.458700e+01
+0.505 1.563500e+01
+0.506 1.626400e+01
+0.507 1.556000e+01
+0.508 1.516500e+01
+0.509 1.589300e+01
+0.51 1.548100e+01
+0.511 1.576900e+01
+0.512 1.618600e+01
+0.513 1.520600e+01
+0.514 1.488500e+01
+0.515 1.531400e+01
+0.516 1.545500e+01
+0.517 1.259400e+01
+0.518 1.440300e+01
+0.519 1.395700e+01
+0.52 1.523600e+01
+0.521 1.534600e+01
+0.522 1.569000e+01
+0.523 1.478900e+01
+0.524 1.590500e+01
+0.525 1.578100e+01
+0.526 1.534100e+01
+0.527 1.341700e+01
+0.528 1.535700e+01
+0.529 1.607100e+01
+0.53 1.544600e+01
+0.531 1.629200e+01
+0.532 1.599800e+01
+0.533 1.428600e+01
+0.534 1.530200e+01
+0.535 1.553500e+01
+0.536 1.619900e+01
+0.537 1.498900e+01
+0.538 1.573800e+01
+0.539 1.535200e+01
+0.54 1.482500e+01
+0.541 1.425100e+01
+0.542 1.551100e+01
+0.543 1.525600e+01
+0.544 1.579200e+01
+0.545 1.543500e+01
+0.546 1.529100e+01
+0.547 1.549000e+01
+0.548 1.504900e+01
+0.549 1.552000e+01
+0.55 1.539900e+01
+0.551 1.538200e+01
+0.552 1.569700e+01
+0.553 1.525000e+01
+0.554 1.554900e+01
+0.555 1.563400e+01
+0.556 1.536600e+01
+0.557 1.498800e+01
+0.558 1.531000e+01
+0.559 1.448300e+01
+0.56 1.474000e+01
+0.561 1.559500e+01
+0.562 1.484700e+01
+0.563 1.540800e+01
+0.564 1.510600e+01
+0.565 1.520100e+01
+0.566 1.437400e+01
+0.567 1.532000e+01
+0.568 1.518000e+01
+0.569 1.480700e+01
+0.57 1.481600e+01
+0.571 1.433100e+01
+0.572 1.513400e+01
+0.573 1.519800e+01
+0.574 1.511900e+01
+0.575 1.477700e+01
+0.576 1.465400e+01
+0.577 1.502300e+01
+0.578 1.456000e+01
+0.579 1.477000e+01
+0.58 1.502000e+01
+0.581 1.508900e+01
+0.582 1.532000e+01
+0.583 1.547900e+01
+0.584 1.544800e+01
+0.585 1.532400e+01
+0.586 1.495300e+01
+0.587 1.528100e+01
+0.588 1.493400e+01
+0.589 1.289400e+01
+0.59 1.370900e+01
+0.591 1.466200e+01
+0.592 1.435400e+01
+0.593 1.456100e+01
+0.594 1.449100e+01
+0.595 1.430800e+01
+0.596 1.474500e+01
+0.597 1.478800e+01
+0.598 1.460700e+01
+0.599 1.460600e+01
+0.6 1.475300e+01
+0.601 1.457900e+01
+0.602 1.436000e+01
+0.603 1.466400e+01
+0.604 1.492100e+01
+0.605 1.489500e+01
+0.606 1.482200e+01
+0.607 1.491100e+01
+0.608 1.486200e+01
+0.609 1.474900e+01
+0.61 1.468600e+01
+0.611 1.461100e+01
+0.612 1.483100e+01
+0.613 1.462100e+01
+0.614 1.417600e+01
+0.615 1.469700e+01
+0.616 1.431000e+01
+0.617 1.412800e+01
+0.618 1.466400e+01
+0.619 1.473300e+01
+0.62 1.473900e+01
+0.621 1.480200e+01
+0.622 1.426900e+01
+0.623 1.416500e+01
+0.624 1.411800e+01
+0.625 1.402600e+01
+0.626 1.401200e+01
+0.627 1.441700e+01
+0.628 1.363100e+01
+0.629 1.411400e+01
+0.63 1.392400e+01
+0.631 1.416100e+01
+0.632 1.363800e+01
+0.633 1.450800e+01
+0.634 1.428400e+01
+0.635 1.445800e+01
+0.636 1.412800e+01
+0.637 1.461000e+01
+0.638 1.470700e+01
+0.639 1.464600e+01
+0.64 1.434000e+01
+0.641 1.434800e+01
+0.642 1.437600e+01
+0.643 1.452500e+01
+0.644 1.446200e+01
+0.645 1.456700e+01
+0.646 1.415000e+01
+0.647 1.408600e+01
+0.648 1.395200e+01
+0.649 1.351900e+01
+0.65 1.359400e+01
+0.651 1.444700e+01
+0.652 1.387100e+01
+0.653 1.431100e+01
+0.654 1.415300e+01
+0.655 1.349900e+01
+0.656 1.185100e+01
+0.657 1.239300e+01
+0.658 1.385500e+01
+0.659 1.390500e+01
+0.66 1.399200e+01
+0.661 1.393300e+01
+0.662 1.381900e+01
+0.663 1.384400e+01
+0.664 1.396700e+01
+0.665 1.421400e+01
+0.666 1.420300e+01
+0.667 1.410200e+01
+0.668 1.415000e+01
+0.669 1.439400e+01
+0.67 1.419600e+01
+0.671 1.416900e+01
+0.672 1.397200e+01
+0.673 1.409400e+01
+0.674 1.407400e+01
+0.675 1.395800e+01
+0.676 1.412000e+01
+0.677 1.399100e+01
+0.678 1.406600e+01
+0.679 1.394700e+01
+0.68 1.396900e+01
+0.681 1.391500e+01
+0.682 1.398100e+01
+0.683 1.383000e+01
+0.684 1.373900e+01
+0.685 1.374800e+01
+0.686 1.343800e+01
+0.687 9.682400e+00
+0.688 1.120600e+01
+0.689 1.127800e+01
+0.69 1.182100e+01
+0.691 1.233300e+01
+0.692 1.268900e+01
+0.693 1.260900e+01
+0.694 1.246400e+01
+0.695 1.271400e+01
+0.696 1.268400e+01
+0.697 1.340300e+01
+0.698 1.319200e+01
+0.699 1.291800e+01
+0.7 1.282300e+01
+0.701 1.265900e+01
+0.702 1.267400e+01
+0.703 1.274700e+01
+0.704 1.307800e+01
+0.705 1.321400e+01
+0.706 1.314400e+01
+0.707 1.309000e+01
+0.708 1.304800e+01
+0.709 1.309500e+01
+0.71 1.317500e+01
+0.711 1.315500e+01
+0.712 1.307100e+01
+0.713 1.291800e+01
+0.714 1.302900e+01
+0.715 1.258700e+01
+0.716 1.271600e+01
+0.717 1.107100e+01
+0.718 1.029600e+01
+0.719 9.231800e+00
+0.72 9.855000e+00
+0.721 1.086100e+01
+0.722 1.240700e+01
+0.723 1.144400e+01
+0.724 1.055500e+01
+0.725 1.038000e+01
+0.726 1.081300e+01
+0.727 1.085000e+01
+0.728 1.040000e+01
+0.729 1.046600e+01
+0.73 1.128500e+01
+0.731 1.070300e+01
+0.732 1.153400e+01
+0.733 1.196200e+01
+0.734 1.235700e+01
+0.735 1.217800e+01
+0.736 1.205900e+01
+0.737 1.203900e+01
+0.738 1.226900e+01
+0.739 1.190500e+01
+0.74 1.219500e+01
+0.741 1.214800e+01
+0.742 1.215300e+01
+0.743 1.240500e+01
+0.744 1.250300e+01
+0.745 1.249700e+01
+0.746 1.247000e+01
+0.747 1.247700e+01
+0.748 1.240100e+01
+0.749 1.235700e+01
+0.75 1.234100e+01
+0.751 1.228600e+01
+0.752 1.233000e+01
+0.753 1.226600e+01
+0.754 1.242000e+01
+0.755 1.238300e+01
+0.756 1.223200e+01
+0.757 1.222100e+01
+0.758 1.229500e+01
+0.759 1.194500e+01
+0.76 2.660400e+00
+0.761 1.539600e+00
+0.762 6.876600e+00
+0.763 3.795200e+00
+0.764 5.387800e+00
+0.765 6.860100e+00
+0.766 8.146100e+00
+0.767 9.741700e+00
+0.768 1.113800e+01
+0.769 1.127800e+01
+0.77 1.160800e+01
+0.771 1.168600e+01
+0.772 1.177800e+01
+0.773 1.177100e+01
+0.774 1.177100e+01
+0.775 1.177100e+01
+0.776 1.179800e+01
+0.777 1.172700e+01
+0.778 1.171300e+01
+0.779 1.176500e+01
+0.78 1.163600e+01
+0.781 1.160700e+01
+0.782 1.166200e+01
+0.783 1.161400e+01
+0.784 1.153600e+01
+0.785 1.158600e+01
+0.786 1.159200e+01
+0.787 1.145000e+01
+0.788 1.130500e+01
+0.789 1.125700e+01
+0.79 1.091000e+01
+0.791 1.105800e+01
+0.792 1.095300e+01
+0.793 1.087500e+01
+0.794 1.097200e+01
+0.795 1.093200e+01
+0.796 1.074200e+01
+0.797 1.091300e+01
+0.798 1.112100e+01
+0.799 1.090500e+01
+0.8 1.072500e+01
+0.801 1.084300e+01
+0.802 1.085600e+01
+0.803 1.065700e+01
+0.804 1.078200e+01
+0.805 1.054500e+01
+0.806 1.097400e+01
+0.807 1.085900e+01
+0.808 1.082100e+01
+0.809 1.054800e+01
+0.81 1.055900e+01
+0.811 1.053300e+01
+0.812 1.026800e+01
+0.813 1.008600e+01
+0.814 9.035600e+00
+0.815 8.952300e+00
+0.816 8.321600e+00
+0.817 8.518300e+00
+0.818 8.225900e+00
+0.819 9.051900e+00
+0.82 8.618800e+00
+0.821 9.976400e+00
+0.822 9.515700e+00
+0.823 6.727100e+00
+0.824 9.350600e+00
+0.825 9.693500e+00
+0.826 9.338100e+00
+0.827 9.846500e+00
+0.828 8.497900e+00
+0.829 9.293000e+00
+0.83 9.160100e+00
+0.831 9.239200e+00
+0.832 8.942600e+00
+0.833 9.565000e+00
+0.834 9.341200e+00
+0.835 1.003200e+01
+0.836 9.723400e+00
+0.837 1.009200e+01
+0.838 9.990100e+00
+0.839 1.001300e+01
+0.84 1.015700e+01
+0.841 1.010100e+01
+0.842 9.970300e+00
+0.843 1.005300e+01
+0.844 9.863100e+00
+0.845 1.016500e+01
+0.846 1.018700e+01
+0.847 9.917000e+00
+0.848 9.921700e+00
+0.849 9.859600e+00
+0.85 8.937200e+00
+0.851 9.749300e+00
+0.852 9.692700e+00
+0.853 9.648600e+00
+0.854 8.511200e+00
+0.855 9.130000e+00
+0.856 9.731700e+00
+0.857 9.916600e+00
+0.858 9.919600e+00
+0.859 9.917100e+00
+0.86 9.881600e+00
+0.861 9.867900e+00
+0.862 9.944900e+00
+0.863 1.000500e+01
+0.864 9.791600e+00
+0.865 9.632400e+00
+0.866 8.490000e+00
+0.867 9.154600e+00
+0.868 9.592000e+00
+0.869 9.495600e+00
+0.87 9.675500e+00
+0.871 9.538700e+00
+0.872 9.668600e+00
+0.873 9.572100e+00
+0.874 9.404200e+00
+0.875 9.268700e+00
+0.876 9.527700e+00
+0.877 9.561500e+00
+0.878 9.523700e+00
+0.879 9.365600e+00
+0.88 9.395700e+00
+0.881 9.086100e+00
+0.882 9.324500e+00
+0.883 9.292700e+00
+0.884 9.330500e+00
+0.885 9.442300e+00
+0.886 9.075200e+00
+0.887 9.106200e+00
+0.888 9.222800e+00
+0.889 9.345500e+00
+0.89 9.239300e+00
+0.891 9.258400e+00
+0.892 9.088100e+00
+0.893 8.732700e+00
+0.894 8.513000e+00
+0.895 8.135700e+00
+0.896 7.625300e+00
+0.897 6.656600e+00
+0.898 7.178000e+00
+0.899 5.487100e+00
+0.9 7.426000e+00
+0.901 5.993300e+00
+0.902 6.679100e+00
+0.903 6.888900e+00
+0.904 8.445700e+00
+0.905 8.170900e+00
+0.906 7.755800e+00
+0.907 6.385400e+00
+0.908 6.521700e+00
+0.909 7.043100e+00
+0.91 6.246700e+00
+0.911 6.680800e+00
+0.912 6.889300e+00
+0.913 6.283400e+00
+0.914 6.264900e+00
+0.915 6.783600e+00
+0.916 5.764600e+00
+0.917 7.301700e+00
+0.918 5.927100e+00
+0.919 7.387700e+00
+0.92 7.441400e+00
+0.921 7.804900e+00
+0.922 7.002600e+00
+0.923 7.450400e+00
+0.924 7.215000e+00
+0.925 7.111000e+00
+0.926 7.033100e+00
+0.927 7.874200e+00
+0.928 5.896800e+00
+0.929 5.512700e+00
+0.93 4.321000e+00
+0.931 4.092100e+00
+0.932 3.008600e+00
+0.933 2.484100e+00
+0.934 1.438000e+00
+0.935 2.508400e+00
+0.936 1.614200e+00
+0.937 1.633800e+00
+0.938 2.005800e+00
+0.939 3.988700e+00
+0.94 4.718100e+00
+0.941 3.719500e+00
+0.942 4.053200e+00
+0.943 2.783400e+00
+0.944 2.857900e+00
+0.945 3.682100e+00
+0.946 1.946100e+00
+0.947 3.711200e+00
+0.948 2.742300e+00
+0.949 4.939600e+00
+0.95 1.472600e+00
+0.951 4.837800e+00
+0.952 2.689100e+00
+0.953 3.436200e+00
+0.954 4.241100e+00
+0.955 3.411700e+00
+0.956 3.282100e+00
+0.957 2.706700e+00
+0.958 4.610100e+00
+0.959 3.738500e+00
+0.96 4.206600e+00
+0.961 4.612000e+00
+0.962 4.417400e+00
+0.963 5.050300e+00
+0.964 4.586000e+00
+0.965 5.037400e+00
+0.966 5.027500e+00
+0.967 5.024000e+00
+0.968 6.521000e+00
+0.969 6.862200e+00
+0.97 6.346100e+00
+0.971 7.139700e+00
+0.972 6.876500e+00
+0.973 6.064800e+00
+0.974 5.752900e+00
+0.975 5.898700e+00
+0.976 5.719100e+00
+0.977 6.386400e+00
+0.978 6.150900e+00
+0.979 6.381500e+00
+0.98 6.046800e+00
+0.981 7.133800e+00
+0.982 6.921800e+00
+0.983 6.686500e+00
+0.984 7.373200e+00
+0.985 6.881700e+00
+0.986 7.508300e+00
+0.987 7.392800e+00
+0.988 7.346200e+00
+0.989 7.490600e+00
+0.99 7.322700e+00
+0.991 7.535800e+00
+0.992 7.510200e+00
+0.993 7.372800e+00
+0.994 7.541000e+00
+0.995 7.517600e+00
+0.996 7.488400e+00
+0.997 7.397100e+00
+0.998 7.388700e+00
+0.999 7.385700e+00
+1 7.353200e+00
+1.001 7.444200e+00
+1.002 7.280500e+00
+1.003 7.344200e+00
+1.004 7.233600e+00
+1.005 6.817400e+00
+1.006 7.125200e+00
+1.007 7.275300e+00
+1.008 7.268500e+00
+1.009 7.197200e+00
+1.01 7.191400e+00
+1.011 7.227800e+00
+1.012 7.187700e+00
+1.013 7.176100e+00
+1.014 7.206800e+00
+1.015 7.081700e+00
+1.016 7.112900e+00
+1.017 7.033700e+00
+1.018 7.142200e+00
+1.019 6.887800e+00
+1.02 6.989600e+00
+1.021 7.017500e+00
+1.022 6.897000e+00
+1.023 6.950800e+00
+1.024 6.905800e+00
+1.025 6.975300e+00
+1.026 6.963600e+00
+1.027 6.930500e+00
+1.028 6.938500e+00
+1.029 6.862800e+00
+1.03 6.905500e+00
+1.031 6.873600e+00
+1.032 6.878700e+00
+1.033 6.761300e+00
+1.034 6.801500e+00
+1.035 6.823400e+00
+1.036 6.820200e+00
+1.037 6.749700e+00
+1.038 6.717200e+00
+1.039 6.763600e+00
+1.04 6.717000e+00
+1.041 6.717600e+00
+1.042 6.720000e+00
+1.043 6.652500e+00
+1.044 6.683300e+00
+1.045 6.645200e+00
+1.046 6.471400e+00
+1.047 6.569400e+00
+1.048 6.627400e+00
+1.049 6.589600e+00
+1.05 6.546300e+00
+1.051 6.552100e+00
+1.052 6.511800e+00
+1.053 6.491900e+00
+1.054 6.464600e+00
+1.055 6.484700e+00
+1.056 6.464100e+00
+1.057 6.448200e+00
+1.058 6.381800e+00
+1.059 6.187500e+00
+1.06 6.358500e+00
+1.061 6.212100e+00
+1.062 6.326600e+00
+1.063 6.223900e+00
+1.064 6.319600e+00
+1.065 6.291300e+00
+1.066 6.171300e+00
+1.067 6.203200e+00
+1.068 6.194400e+00
+1.069 5.862600e+00
+1.07 6.046900e+00
+1.071 6.166100e+00
+1.072 6.153600e+00
+1.073 6.036300e+00
+1.074 6.215800e+00
+1.075 5.925200e+00
+1.076 6.147100e+00
+1.077 6.043400e+00
+1.078 6.032100e+00
+1.079 6.047400e+00
+1.08 5.972200e+00
+1.081 5.808300e+00
+1.082 5.894000e+00
+1.083 5.981400e+00
+1.084 5.785200e+00
+1.085 5.933000e+00
+1.086 5.541000e+00
+1.087 5.669700e+00
+1.088 5.931700e+00
+1.089 5.791900e+00
+1.09 5.557300e+00
+1.091 5.883500e+00
+1.092 5.812400e+00
+1.093 5.105800e+00
+1.094 5.396500e+00
+1.095 5.206700e+00
+1.096 5.032300e+00
+1.097 5.785200e+00
+1.098 5.029100e+00
+1.099 5.077200e+00
+1.1 4.857700e+00
+1.101 4.969600e+00
+1.102 4.688300e+00
+1.103 4.663700e+00
+1.104 4.676500e+00
+1.105 5.064400e+00
+1.106 3.979200e+00
+1.107 4.830400e+00
+1.108 4.156500e+00
+1.109 4.127800e+00
+1.11 4.789900e+00
+1.111 3.315400e+00
+1.112 4.135700e+00
+1.113 2.685000e+00
+1.114 2.998500e+00
+1.115 2.498700e+00
+1.116 2.013600e+00
+1.117 7.961800e-01
+1.118 2.175300e+00
+1.119 1.131700e+00
+1.12 1.418900e+00
+1.121 1.858600e+00
+1.122 8.168600e-01
+1.123 1.281700e+00
+1.124 1.087000e+00
+1.125 1.442800e+00
+1.126 5.158900e-01
+1.127 1.572500e+00
+1.128 9.922400e-01
+1.129 1.059100e+00
+1.13 7.057400e-01
+1.131 2.956000e+00
+1.132 2.341100e+00
+1.133 1.533100e+00
+1.134 4.174000e-01
+1.135 1.546200e-01
+1.136 1.287600e+00
+1.137 2.878500e+00
+1.138 2.032900e+00
+1.139 2.985000e+00
+1.14 2.559900e+00
+1.141 1.933700e+00
+1.142 2.247900e+00
+1.143 3.118300e+00
+1.144 1.132600e+00
+1.145 1.460400e+00
+1.146 1.576400e+00
+1.147 5.917600e-01
